<?xml version="1.0" encoding="UTF-8"?>
<kml xmlns="http://earth.google.com/kml/2.2">
<Document>
<name>4614_Yarraman</name>
<description><![CDATA[]]></description>

<Placemark>
<name>4614_Yarraman 10 min</name>
<description><![CDATA[]]></description>
<visibility>1</visibility>
<Style><LineStyle><width>1</width><color>ffffffff</color></LineStyle><PolyStyle><fill>0</fill></PolyStyle></Style>
<MultiGeometry>
<Polygon>
<outerBoundaryIs>
<LinearRing><coordinates>
151.968298897936,-26.7685029572022
151.971897695684,-26.7743935379029
151.968298897936,-26.7776064531346
151.965398767882,-26.7802838130433
151.966299565853,-26.7861737825767
151.966607155404,-26.7920634464567
151.968298897936,-26.7943286203984
151.972359080011,-26.7979528046371
151.968298897936,-26.8015768730904
151.966938527653,-26.8038418570715
151.967077083885,-26.8097306037135
151.968298897936,-26.8112213771353
151.974896693808,-26.8121841578854
151.978745408067,-26.8156190445168
151.98149448968,-26.8171097405038
151.988092285552,-26.8179743351929
151.992050963075,-26.8215071794351
151.988092285552,-26.8250399135421
151.98681116014,-26.8273950084222
151.987267561068,-26.8332825314317
151.988092285552,-26.8341117354393
151.989798612071,-26.8332825314317
151.994690081424,-26.8289176730186
152.001287877296,-26.8291791386177
152.007885673169,-26.830338808177
152.011184571105,-26.8332825314317
152.007885673169,-26.8362261781804
152.001287877296,-26.8373857755895
152.000109699462,-26.8391697484173
151.999968318122,-26.845056659333
152.000188244651,-26.8509432641322
152.001287877296,-26.8518558886271
152.007885673169,-26.8519452089269
152.014483469041,-26.8519759702496
152.019923756865,-26.856829562769
152.019829650519,-26.8627155551971
152.021081264912,-26.8641169368277
152.027679060785,-26.8641169368277
152.032705952878,-26.8686012413702
152.034276856657,-26.8703322672482
152.040874652528,-26.8705630686966
152.04527318311,-26.8744866212423
152.047472448401,-26.8771616926424
152.054070244273,-26.8779484663019
152.060668040145,-26.8793908704557
152.06176767279,-26.8803716947672
152.060668040145,-26.8813525105676
152.056269509563,-26.8862564618986
152.054070244273,-26.888217982847
152.051870978982,-26.8862564618986
152.047472448401,-26.8835816057336
152.040874652528,-26.8832386708773
152.034276856657,-26.882333317857
152.027679060785,-26.8840358310544
152.023570999204,-26.8803716947672
152.022817526984,-26.8744866212423
152.021081264912,-26.8730853681052
152.01605437282,-26.8686012413702
152.014483469041,-26.867484739078
152.009137287562,-26.8627155551971
152.007885673169,-26.861713705772
152.001287877296,-26.8618030182903
151.994690081424,-26.8618747178851
151.988092285552,-26.8619165696639
151.982390118079,-26.856829562769
151.98149448968,-26.8561117378652
151.975701303061,-26.8509432641322
151.974896693808,-26.850360445629
151.974296894184,-26.8509432641322
151.968298897936,-26.8562944573636
151.967622200923,-26.856829562769
151.967513446046,-26.8627155551971
151.967463733901,-26.8686012413702
151.967346638738,-26.8744866212423
151.968298897936,-26.8755815418392
151.973669196902,-26.8803716947672
151.97344129766,-26.8862564618986
151.972856138384,-26.8921409225906
151.974896693808,-26.8970444057149
151.975996326454,-26.898025076797
151.974896693808,-26.8990057393642
151.968298897936,-26.901350767498
151.964569708965,-26.898025076797
151.963741657488,-26.8921409225906
151.963156498212,-26.8862564618986
151.96292859897,-26.8803716947672
151.961701102064,-26.8795223216305
151.95605556539,-26.8744866212423
151.955938470227,-26.8686012413702
151.955103306192,-26.8679168749936
151.954103640151,-26.8686012413702
151.95382218078,-26.8744866212423
151.94850551032,-26.8792289860133
151.941907714448,-26.8788023717838
151.935309918576,-26.8778938064142
151.931490142018,-26.8744866212423
151.928712122703,-26.8737071183292
151.927755920403,-26.8744866212423
151.922114326832,-26.8795188045442
151.915516530959,-26.8794690960199
151.914378979947,-26.8803716947672
151.908918735087,-26.8852418687372
151.902320939216,-26.8851961661281
151.900821440154,-26.8862564618986
151.902320939216,-26.8907829973244
151.903843507494,-26.8921409225906
151.902320939216,-26.8934988315351
151.895723143343,-26.8950830380074
151.889125347471,-26.8950076001077
151.882527551599,-26.8963195563992
151.880252449574,-26.898025076797
151.875929755727,-26.9018800461094
151.869331959855,-26.901457358529
151.865666517704,-26.9039089244717
151.862734163983,-26.9065238694778
151.856136368111,-26.9054343164184
151.85442582844,-26.9039089244717
151.856136368111,-26.9023835119183
151.859435266047,-26.898025076797
151.862734163983,-26.8950830380074
151.869331959855,-26.8945926907591
151.871460281104,-26.8921409225906
151.875929755727,-26.8881547085092
151.882527551599,-26.8879621342195
151.88411738193,-26.8862564618986
151.882527551599,-26.8847078686776
151.877666017799,-26.8803716947672
151.875929755727,-26.8785181613542
151.869331959855,-26.8782699179643
151.865090519652,-26.8744866212423
151.862734163983,-26.8710246701801
151.856136368111,-26.8701591658528
151.854389892733,-26.8686012413702
151.856136368111,-26.8670432954253
151.861634531338,-26.8627155551971
151.862734163983,-26.8617345777255
151.863833796629,-26.8627155551971
151.869331959855,-26.865167961657
151.873180674114,-26.8686012413702
151.875929755727,-26.870454937368
151.882527551599,-26.8702513787787
151.887275498161,-26.8744866212423
151.889125347471,-26.8758426561299
151.895723143343,-26.8757127034912
151.902320939216,-26.8755470174778
151.903414496542,-26.8744866212423
151.908918735087,-26.869576739875
151.915516530959,-26.8695039268826
151.916445797983,-26.8686012413702
151.922114326832,-26.8635445436113
151.928712122703,-26.863495133876
151.935309918576,-26.8634377417639
151.941907714448,-26.8634052998881
151.942628785035,-26.8627155551971
151.94850551032,-26.8574728555348
151.949305243153,-26.856829562769
151.949325112291,-26.8509432641322
151.94850551032,-26.8498921071569
151.941907714448,-26.8495075350926
151.935309918576,-26.848679221593
151.931249736501,-26.845056659333
151.933231160972,-26.8391697484173
151.935309918576,-26.8373149048556
151.937388676179,-26.8391697484173
151.941907714448,-26.8406056085715
151.94850551032,-26.8402210049585
151.955103306192,-26.8399911962226
151.960780479384,-26.845056659333
151.961701102064,-26.8456698616164
151.962317718501,-26.845056659333
151.968298897936,-26.8397199399739
151.969283643588,-26.8391697484173
151.968298897936,-26.83791717469
151.96310488842,-26.8332825314317
151.962657304364,-26.8273950084222
151.961701102064,-26.8264678115563
151.956142329164,-26.8215071794351
151.956221576679,-26.8156190445168
151.956325120243,-26.8097306037135
151.955103306192,-26.8079986511529
151.950446038517,-26.8038418570715
151.950995244611,-26.7979528046371
151.955103306192,-26.794285881686
151.956795048723,-26.7920634464567
151.957102638275,-26.7861737825767
151.958003436246,-26.7802838130433
151.960178533786,-26.7743935379029
151.961701102064,-26.7730342002449
151.968298897936,-26.7685029572022
</coordinates></LinearRing>
</outerBoundaryIs>
</Polygon>
</MultiGeometry>
</Placemark>

</Document>
</kml>
