<?xml version="1.0" encoding="UTF-8"?>
<kml xmlns="http://earth.google.com/kml/2.2">
<Document>
<name>4614_Yarraman</name>
<description><![CDATA[]]></description>

<Placemark>
<name>4614_Yarraman 60 min</name>
<description><![CDATA[]]></description>
<visibility>1</visibility>
<Style><LineStyle><width>1</width><color>ffffffff</color></LineStyle><PolyStyle><fill>0</fill></PolyStyle></Style>
<MultiGeometry>
<Polygon>
<outerBoundaryIs>
<LinearRing><coordinates>
152.024380162848,-26.3389863304405
152.028461273697,-26.3347119064678
152.030288636764,-26.2992280970185
152.037575754593,-26.2637334236674
152.063966938081,-26.2400642776845
152.090358121569,-26.2637334236674
152.097645239398,-26.2992280970185
152.099472602465,-26.3347119064678
152.10055471519,-26.3701848417348
152.099155182732,-26.405646892559
152.101544232337,-26.4410980486998
152.103553713314,-26.4453685364641
152.143140488546,-26.4504254882832
152.172309691348,-26.4765382999364
152.149738284418,-26.5119676360679
152.143140488546,-26.5178714635172
152.132441360105,-26.5473860469129
152.131829981337,-26.5827935223104
152.13831283303,-26.6181900521187
152.143140488546,-26.6368154047973
152.161892118919,-26.6535756262163
152.143140488546,-26.6703333871619
152.103553713314,-26.6852271082197
152.101911108532,-26.6889502345014
152.101110085213,-26.7243138668922
152.099634230617,-26.7596665133265
152.103553713314,-26.7613496984834
152.141255404011,-26.7950081637623
152.143140488546,-26.7962777189016
152.181304984428,-26.830338808177
152.182727263778,-26.8312046170758
152.213178629341,-26.830338808177
152.22231403901,-26.8221865599325
152.226233521706,-26.7950081637623
152.231111100173,-26.7596665133265
152.261900814242,-26.7321709603018
152.292690528313,-26.7596665133265
152.297568106779,-26.7950081637623
152.301487589476,-26.7972305413086
152.341074364708,-26.8024471091288
152.372327081996,-26.830338808177
152.37789283398,-26.8656584365684
152.38066113994,-26.8715439695968
152.420247915172,-26.8749512434486
152.449417117975,-26.9009670389537
152.459834690405,-26.9040637584285
152.499421465637,-26.9058701389038
152.533510077643,-26.9362646053703
152.499421465637,-26.9666508811566
152.459834690405,-26.9684562592847
152.440983845056,-26.9715511258753
152.454485126184,-27.0068265905455
152.452072577614,-27.0420909894782
152.420247915172,-27.0704327698563
152.413050319676,-27.0773443127899
152.413538292252,-27.1125865506171
152.38066113994,-27.1418470943663
152.347783987629,-27.1125865506171
152.348271960205,-27.0773443127899
152.344241306726,-27.0420909894782
152.343891928781,-27.0068265905455
152.341074364708,-27.0047995646015
152.323080375966,-27.0068265905455
152.301487589476,-27.0260630896534
152.279894802985,-27.0068265905455
152.261900814242,-26.977431138021
152.25530301837,-26.9715511258753
152.22231403901,-26.9699546894785
152.219922088845,-26.9715511258753
152.182727263778,-27.0046954565421
152.177377699557,-27.0068265905455
152.143140488546,-27.0373261771687
152.103553713314,-27.0371248426178
152.063966938081,-27.0380381734694
152.060990488816,-27.0420909894782
152.024380162848,-27.0746940722673
152.019492906647,-27.0773443127899
152.019610671856,-27.1125865506171
152.013069655639,-27.1478176931167
152.024380162848,-27.1638281782636
152.045972949339,-27.1830377304648
152.060368140333,-27.2182466528578
152.063966938081,-27.2367731968778
152.082718568454,-27.2534444505118
152.063966938081,-27.2701132058222
152.024380162848,-27.283300517167
151.984793387616,-27.2841206255863
151.945206612384,-27.2760657270604
151.919757971163,-27.2534444505118
151.945206612384,-27.2182466528578
151.945206612384,-27.2182466528578
151.945206612384,-27.2182466528578
151.905619837151,-27.2109123777726
151.874280306759,-27.1830377304648
151.870335972271,-27.1478176931167
151.866033061919,-27.1452650848622
151.826446286687,-27.1419466069595
151.823253804813,-27.1478176931167
151.823401150131,-27.1830377304648
151.826446286687,-27.189006126992
151.859323438999,-27.2182466528578
151.826446286687,-27.2474795054977
151.793569134375,-27.2182466528578
151.786859511454,-27.2155386690487
151.747272736222,-27.2146544151818
151.743946116454,-27.2182466528578
151.74287420564,-27.2534444505118
151.747272736222,-27.2616283894027
151.786859511454,-27.2785789180764
151.798170018663,-27.288631113663
151.786859511454,-27.2986823995151
151.747272736222,-27.3156272743292
151.707685960989,-27.3078191424778
151.686093174499,-27.288631113663
151.668099185757,-27.2726385568
151.628512410525,-27.2802543471739
151.598351057967,-27.2534444505118
151.588925635293,-27.2456236795974
151.54933886006,-27.2349206811905
151.530587229686,-27.2182466528578
151.517999329667,-27.1830377304648
151.54933886006,-27.1551561170129
151.562989472209,-27.1478176931167
151.54933886006,-27.1387851251194
151.519902540015,-27.1125865506171
151.514355198226,-27.0773443127899
151.54933886006,-27.0461907823635
151.557761578194,-27.0420909894782
151.54933886006,-27.0385294316877
151.509752084827,-27.03891447041
151.500096773795,-27.0420909894782
151.500955023665,-27.0773443127899
151.470165309595,-27.1047559007203
151.439375595526,-27.0773443127899
151.440233845395,-27.0420909894782
151.470165309595,-27.0154286841728
151.473731685742,-27.0068265905455
151.4848270782,-26.9715511258753
151.509752084827,-26.9493349754998
151.54933886006,-26.9463475959399
151.588925635293,-26.9382812756282
151.59157653542,-26.9362646053703
151.588925635293,-26.933590933892
151.552337858183,-26.9009670389537
151.552665479827,-26.8656584365684
151.54933886006,-26.8566031723295
151.519902540015,-26.830338808177
151.54933886006,-26.8040683529817
151.578775180105,-26.830338808177
151.588925635293,-26.8333072682778
151.597531455995,-26.830338808177
151.594747219886,-26.7950081637623
151.628512410525,-26.7648645047297
151.633169678199,-26.7596665133265
151.668099185757,-26.7284735721666
151.707685960989,-26.7374087211224
151.711684625154,-26.7243138668922
151.747272736222,-26.6925228170935
151.750294627461,-26.6889502345014
151.760923348371,-26.6535756262163
151.747272736222,-26.6462045355761
151.718996468199,-26.6535756262163
151.707685960989,-26.6636837765566
151.69637545378,-26.6535756262163
151.707685960989,-26.6434665807075
151.715933205829,-26.6181900521187
151.747272736222,-26.5901687023213
151.75135384707,-26.5827935223104
151.752413875862,-26.5473860469129
151.754217784508,-26.5119676360679
151.756698158896,-26.4765382999364
151.786859511454,-26.4495371932453
151.803354001134,-26.4410980486998
151.826446286687,-26.4204195322113
151.849538572239,-26.4410980486998
151.866033061919,-26.4765382999364
151.866033061919,-26.4765382999364
151.866033061919,-26.4765382999364
151.905619837151,-26.4733169097992
151.945206612384,-26.4452195686256
151.950281839978,-26.4410980486998
151.984793387616,-26.4101925216336
151.987267561068,-26.405646892559
151.989562878608,-26.3701848417348
152.024380162848,-26.3389863304405
</coordinates></LinearRing>
</outerBoundaryIs>
</Polygon>
</MultiGeometry>
</Placemark>

</Document>
</kml>
