<?xml version="1.0" encoding="UTF-8"?>
<kml xmlns="http://earth.google.com/kml/2.2">
<Document>
<name>4614_Yarraman</name>
<description><![CDATA[]]></description>

<Placemark>
<name>4614_Yarraman 20 min</name>
<description><![CDATA[]]></description>
<visibility>1</visibility>
<Style><LineStyle><width>1</width><color>ffffffff</color></LineStyle><PolyStyle><fill>0</fill></PolyStyle></Style>
<MultiGeometry>
<Polygon>
<outerBoundaryIs>
<LinearRing><coordinates>
151.99798897936,-26.6719193851813
152.003853686802,-26.6771599174528
151.99798897936,-26.6824002089004
151.995056625639,-26.6889502345014
151.995451365563,-26.7007393320061
151.984793387616,-26.7102604048173
151.982731576406,-26.7125272095939
151.983164302216,-26.7243138668922
151.983343322589,-26.7360993035285
151.984793387616,-26.7379030891509
151.99596924593,-26.7478835191305
151.984793387616,-26.7578630729891
151.983604595567,-26.7596665133265
151.983480393413,-26.7714482857448
151.971597795872,-26.782056696721
151.970414334729,-26.7832288360137
151.971597795872,-26.784294888842
151.983599216417,-26.7950081637623
151.971597795872,-26.8057204271136
151.970693988219,-26.8067862686194
151.971597795872,-26.8076784994491
151.984793387616,-26.8076922260224
151.986383217947,-26.8067862686194
151.987331001413,-26.7950081637623
151.991077002732,-26.7832288360137
151.99798897936,-26.7770582240321
152.004900955988,-26.7832288360137
152.011184571105,-26.7930450273838
152.013383836395,-26.7950081637623
152.021081264912,-26.8067862686194
152.024380162848,-26.8096587915721
152.034357317582,-26.8185631502145
152.037575754593,-26.821834289072
152.047105904186,-26.830338808177
152.037575754593,-26.8388426888362
152.034882776686,-26.8421132421368
152.024380162848,-26.8514838553465
152.023550251418,-26.8538864517238
152.024380162848,-26.8547293553108
152.036630962821,-26.8656584365684
152.037575754593,-26.8665502036854
152.050771346337,-26.8666434843584
152.052740837642,-26.8656584365684
152.063966938081,-26.8556435421533
152.070564733953,-26.8538864517238
152.077162529825,-26.848
152.083760325697,-26.8538864517238
152.087665143662,-26.8656584365684
152.090358121569,-26.8700181200755
152.095433349163,-26.8656584365684
152.103553713314,-26.8584142831626
152.111674077464,-26.8656584365684
152.116749305058,-26.8740662471246
152.120519474127,-26.877429196301
152.129944896801,-26.879692663458
152.143140488546,-26.880166406662
152.147690692596,-26.877429196301
152.15633608029,-26.8697174576431
152.169531672034,-26.871853726008
152.175782215491,-26.877429196301
152.169531672034,-26.8830043916246
152.15633608029,-26.88514040892
152.153267338024,-26.8891987305524
152.146185625102,-26.9009670389537
152.143140488546,-26.9036826283067
152.140095351989,-26.9009670389537
152.129944896801,-26.8987039979428
152.116749305058,-26.8990690076246
152.113530868047,-26.9009670389537
152.109418420755,-26.912734121136
152.103553713314,-26.9179635417418
152.090358121569,-26.9188973413515
152.083446144941,-26.912734121136
152.077162529825,-26.9099976998399
152.063966938081,-26.9096778540599
152.054198772764,-26.9009670389537
152.052323768895,-26.8891987305524
152.050771346337,-26.8882138792823
152.049337042886,-26.8891987305524
152.048534805363,-26.9009670389537
152.037575754593,-26.9107397867468
152.026616703822,-26.9009670389537
152.024380162848,-26.8992364822603
152.018194729218,-26.9009670389537
152.011184571105,-26.9072184540651
152.00417441299,-26.9009670389537
152.000796552072,-26.8891987305524
152.011184571105,-26.8799334551692
152.012223594077,-26.877429196301
152.011184571105,-26.8766673719183
151.998843062968,-26.8656584365684
151.99798897936,-26.8649535617762
151.984793387616,-26.8649857847197
151.971597795872,-26.8650978936389
151.970866738158,-26.8656584365684
151.971597795872,-26.8664252986169
151.983933739945,-26.877429196301
151.983830205737,-26.8891987305524
151.984793387616,-26.8906735231062
151.996335396435,-26.9009670389537
151.993276268023,-26.912734121136
151.99022686657,-26.924499976731
151.984793387616,-26.9293443841967
151.979359908663,-26.924499976731
151.971597795872,-26.9233794719116
151.969861533801,-26.924499976731
151.965599799625,-26.9362646053703
151.958402204128,-26.9426811582589
151.945206612384,-26.9452924415039
151.93421028593,-26.9480280066858
151.932011020639,-26.9499884542228
151.929811755349,-26.9480280066858
151.932011020639,-26.9460675250463
151.935079762905,-26.9362646053703
151.935394505702,-26.924499976731
151.945206612384,-26.9157511241338
151.946640915834,-26.912734121136
151.946732114319,-26.9009670389537
151.947091696919,-26.8891987305524
151.945206612384,-26.8883870778864
151.932011020639,-26.8881140321305
151.930381935239,-26.8891987305524
151.930152486591,-26.9009670389537
151.918815428896,-26.9110768598222
151.905619837151,-26.9113164653722
151.903734752617,-26.912734121136
151.899621840904,-26.924499976731
151.901849668082,-26.9362646053703
151.892424245407,-26.94466716014
151.879228653663,-26.9413062133829
151.873573400058,-26.9362646053703
151.866033061919,-26.9342706868876
151.855074011148,-26.924499976731
151.852837470175,-26.9232348898339
151.839641878431,-26.9233408336158
151.8380520481,-26.924499976731
151.826446286687,-26.934847245253
151.824533882086,-26.9362646053703
151.826446286687,-26.9386411490196
151.836976102321,-26.9480280066858
151.836051241221,-26.95979018031
151.834843481433,-26.9715511258753
151.826446286687,-26.9790347243915
151.818049091941,-26.9715511258753
151.816841332152,-26.95979018031
151.813250694943,-26.9578299033113
151.802254368489,-26.9480280066858
151.800055103198,-26.9452273081903
151.790001319012,-26.9362646053703
151.789022723215,-26.924499976731
151.789498629803,-26.912734121136
151.786859511454,-26.9033205534995
151.784220393105,-26.9009670389537
151.777047404773,-26.8891987305524
151.77366391971,-26.8813525105676
151.769265389129,-26.877429196301
151.77366391971,-26.8735057458698
151.775900460684,-26.8656584365684
151.786859511454,-26.8558817896024
151.789697273119,-26.8538864517238
151.786859511454,-26.8502074552746
151.77366391971,-26.8487678154133
151.766205541768,-26.8421132421368
151.77366391971,-26.835458277709
151.786859511454,-26.8340184502915
151.800055103198,-26.833014923388
151.806338718315,-26.830338808177
151.813250694943,-26.8241707590171
151.820162671571,-26.830338808177
151.819848490815,-26.8421132421368
151.813250694943,-26.8538864517238
151.813250694943,-26.8538864517238
151.813250694943,-26.8538864517238
151.826446286687,-26.8552166808856
151.839641878431,-26.8550755967158
151.841671969468,-26.8538864517238
151.842675347797,-26.8421132421368
151.852837470175,-26.8330456829655
151.866033061919,-26.832791916202
151.876183517107,-26.830338808177
151.879228653663,-26.827621457273
151.882273790219,-26.830338808177
151.879228653663,-26.8330560938974
151.87647957205,-26.8421132421368
151.877648343274,-26.8538864517238
151.878138108891,-26.8656584365684
151.879228653663,-26.8665303867147
151.892424245407,-26.866473061479
151.905619837151,-26.8663964512358
151.918815428896,-26.8665853124832
151.919556754275,-26.8656584365684
151.932011020639,-26.8545478316605
151.945206612384,-26.854512651974
151.945935650602,-26.8538864517238
151.945206612384,-26.8530631901783
151.932011020639,-26.8528162105468
151.918815428896,-26.8524507600219
151.905619837151,-26.8440755287705
151.903420571861,-26.8421132421368
151.89580773047,-26.830338808177
151.905619837151,-26.8215826663582
151.918815428896,-26.8241707590171
151.925727405523,-26.830338808177
151.932011020639,-26.8314092618485
151.945206612384,-26.831162234976
151.958402204128,-26.8310155329386
151.959176139128,-26.830338808177
151.958402204128,-26.8296074364978
151.945206612384,-26.8275351910975
151.932011020639,-26.8234120987639
151.926577541686,-26.8185631502145
151.922156085033,-26.8067862686194
151.921328874942,-26.7950081637623
151.918815428896,-26.7899958333184
151.911234982575,-26.7832288360137
151.918815428896,-26.7764614352607
151.926395875217,-26.7832288360137
151.932011020639,-26.7854726117543
151.934548634436,-26.7832288360137
151.933843741715,-26.7714482857448
151.935010018763,-26.7596665133265
151.93522945765,-26.7478835191305
151.945206612384,-26.738973615058
151.958402204128,-26.7382037173067
151.959852269155,-26.7360993035285
151.960031289529,-26.7243138668922
151.960464015338,-26.7125272095939
151.958402204128,-26.7078122049727
151.950484849081,-26.7007393320061
151.958402204128,-26.6936660198695
151.962658846626,-26.6889502345014
151.971597795872,-26.680963378759
151.984793387616,-26.6797800932816
151.992124271918,-26.6771599174528
151.99798897936,-26.6719193851813
</coordinates></LinearRing>
</outerBoundaryIs>
</Polygon>
</MultiGeometry>
</Placemark>

</Document>
</kml>
