<?xml version="1.0" encoding="UTF-8"?>
<kml xmlns="http://earth.google.com/kml/2.2">
<Document>
<name>4614_Yarraman</name>
<description><![CDATA[]]></description>

<Placemark>
<name>4614_Yarraman 50 min</name>
<description><![CDATA[]]></description>
<visibility>1</visibility>
<Style><LineStyle><width>1</width><color>ffffffff</color></LineStyle><PolyStyle><fill>0</fill></PolyStyle></Style>
<MultiGeometry>
<Polygon>
<outerBoundaryIs>
<LinearRing><coordinates>
151.816549592878,-26.6860027695569
151.802965895495,-26.6565239292123
151.798555604136,-26.6270374731359
151.792019326175,-26.5975434071716
151.792241923876,-26.568041737173
151.794202219763,-26.5385324690033
151.816549592878,-26.5185380056125
151.849538572239,-26.5139356122733
151.882527551599,-26.5128493958101
151.915516530959,-26.5300998547654
151.919397587354,-26.5090156085352
151.94850551032,-26.4829650195572
151.956177365985,-26.479491161651
151.98149448968,-26.4568277237498
151.990787159922,-26.4499591342426
152.014483469041,-26.4287413128534
152.018881999622,-26.4204195322114
152.021147909315,-26.3908723614683
152.047472448401,-26.3672888904783
152.073796987486,-26.3908723614683
152.076062897179,-26.4204195322114
152.076875669135,-26.4499591342426
152.080461427761,-26.4533540055493
152.109658570413,-26.479491161651
152.113450407121,-26.4968594017821
152.127034104505,-26.5090156085352
152.113450407121,-26.52117052901
152.107662866882,-26.5385324690033
152.106852611249,-26.568041737173
152.104534466753,-26.5975434071716
152.108375179527,-26.6270374731359
152.108599086627,-26.6565239292123
152.080461427761,-26.6816681238332
152.078406039639,-26.6860027695569
152.077162529825,-26.7154739883352
152.076120772582,-26.7449375797223
152.080461427761,-26.7510748673441
152.106577703088,-26.7743935379029
152.113450407121,-26.7769324870725
152.146439386482,-26.7763184980334
152.1772722234,-26.8038418570715
152.177799280442,-26.8332825314317
152.179428365842,-26.8343263865514
152.212417345203,-26.8344791450303
152.245406324563,-26.835618765275
152.249988127252,-26.8332825314317
152.256402651016,-26.8038418570715
152.278395303923,-26.784210493358
152.30038795683,-26.8038418570715
152.306802480594,-26.8332825314317
152.308398855287,-26.8627155551971
152.311384283283,-26.8647175236403
152.317121497085,-26.8627155551971
152.344373262644,-26.8384018679062
152.371625028202,-26.8627155551971
152.344373262644,-26.8870240176292
152.342129114388,-26.8921409225906
152.344373262644,-26.8945724284303
152.374635880074,-26.921558627845
152.377362242004,-26.9246225312705
152.410351221365,-26.9258841143785
152.422132999707,-26.921558627845
152.443340200724,-26.9026481257773
152.464547401742,-26.921558627845
152.443340200724,-26.9404659610367
152.43848888023,-26.9509686652023
152.410351221365,-26.9760476333828
152.39715562962,-26.9803710289145
152.403256817201,-27.0097657132428
152.398569443022,-27.0391527124581
152.377362242004,-27.0580402939396
152.356155040987,-27.0391527124581
152.351467666807,-27.0097657132428
152.344373262644,-27.0033762180212
152.311384283283,-27.0049474390415
152.283803333326,-26.9803710289145
152.281629517586,-26.9509686652023
152.278395303923,-26.9487409006452
152.245406324563,-26.9479679924478
152.2413832783,-26.9509686652023
152.212417345203,-26.9767857858392
152.207771010081,-26.9803710289145
152.179428365842,-27.0056260817058
152.151085721603,-26.9803710289145
152.146439386482,-26.9788072667223
152.14165837498,-26.9803710289145
152.113450407121,-27.0055060901126
152.080461427761,-27.0048671327218
152.063098807045,-27.0097657132428
152.047472448401,-27.0236868290943
152.037163392351,-27.0391527124581
152.014483469041,-27.0593518134803
151.99180354573,-27.0391527124581
151.98149448968,-27.0348942034671
151.953286521821,-27.0097657132428
151.94850551032,-27.0072536473331
151.945948225098,-27.0097657132428
151.942161475827,-27.0391527124581
151.94850551032,-27.0443995817509
151.975603600509,-27.0685320208411
151.978162269543,-27.0979036326818
151.978733905633,-27.12726754228
151.98149448968,-27.1307627324896
152.010556209593,-27.156623743945
152.008592579869,-27.1859722319955
151.98149448968,-27.2100741441653
151.94850551032,-27.1990135270037
151.933843741715,-27.1859722319955
151.915516530959,-27.156623743945
151.918277115006,-27.12726754228
151.915516530959,-27.1253485678703
151.882527551599,-27.1244976913222
151.852650740103,-27.0979036326818
151.849538572239,-27.0965502714313
151.816549592878,-27.0959259881701
151.81406921849,-27.0979036326818
151.81232023655,-27.12726754228
151.799186972162,-27.156623743945
151.783560613518,-27.1859722319955
151.750571634158,-27.1813870394333
151.738353493654,-27.1859722319955
151.717582654798,-27.2044469497786
151.696964542698,-27.2153130007602
151.684593675437,-27.2263137977626
151.672222808177,-27.2153130007602
151.660286006435,-27.1859722319955
151.661913752127,-27.156623743945
151.684593675437,-27.1364421835681
151.717582654798,-27.1311306408934
151.750571634158,-27.1318549570259
151.754800990486,-27.12726754228
151.753052008546,-27.0979036326818
151.750571634158,-27.0958921240901
151.736228599653,-27.0979036326818
151.717582654798,-27.1145015718288
151.698936709942,-27.0979036326818
151.684593675437,-27.092145099985
151.666266464682,-27.0979036326818
151.651604696077,-27.1109552104026
151.643932840412,-27.12726754228
151.62961204317,-27.156623743945
151.618615716716,-27.1664074306437
151.607619390263,-27.156623743945
151.593298593021,-27.12726754228
151.590781265381,-27.0979036326818
151.618615716716,-27.0685320208411
151.626470235612,-27.0391527124581
151.618615716716,-27.0357752875454
151.589418574064,-27.0097657132428
151.585626737356,-27.0056260817058
151.552637757996,-26.9975188617321
151.533394186703,-26.9803710289145
151.552637757996,-26.963220582973
151.585626737356,-26.9551103076073
151.590240580623,-26.9509686652023
151.594085450012,-26.921558627845
151.585626737356,-26.9123664183825
151.562946814046,-26.8921409225906
151.585626737356,-26.8719118052406
151.618615716716,-26.8662189767199
151.620703626803,-26.8627155551971
151.62020172534,-26.8332825314317
151.62961204317,-26.8038418570715
151.651604696077,-26.784210493358
151.684593675437,-26.7768076220473
151.717582654798,-26.7756796502544
151.750571634158,-26.7758232444188
151.752467552512,-26.7743935379029
151.750571634158,-26.7615875378536
151.731925689302,-26.7449375797223
151.750571634158,-26.728285183005
151.762353412501,-26.7154739883352
151.783560613518,-26.6965290800623
151.816549592878,-26.6860027695569
</coordinates></LinearRing>
</outerBoundaryIs>
</Polygon>
</MultiGeometry>
</Placemark>

</Document>
</kml>
