<?xml version="1.0" encoding="UTF-8"?>
<kml xmlns="http://earth.google.com/kml/2.2">
<Document>
<name>4614_Yarraman</name>
<description><![CDATA[]]></description>

<Placemark>
<name>4614_Yarraman 40 min</name>
<description><![CDATA[]]></description>
<visibility>1</visibility>
<Style><LineStyle><width>1</width><color>ffffffff</color></LineStyle><PolyStyle><fill>0</fill></PolyStyle></Style>
<MultiGeometry>
<Polygon>
<outerBoundaryIs>
<LinearRing><coordinates>
152.057369142209,-26.466694880148
152.074963264535,-26.4824439475603
152.07776232945,-26.5060635051383
152.06176767279,-26.5296782077867
152.057369142209,-26.5336135193428
152.053488085813,-26.5532880524927
152.054781771278,-26.5768930362475
152.057369142209,-26.5845065097043
152.075247040701,-26.6004931560462
152.057369142209,-26.6164775689562
152.054676164302,-26.6240884088879
152.057369142209,-26.6287143580836
152.078585583837,-26.6476787917756
152.079821343087,-26.671264301716
152.078635824049,-26.6948449357201
152.057369142209,-26.7138432561268
152.053488085813,-26.7184206908026
152.050602172084,-26.7419915639821
152.055054126113,-26.7655575522811
152.055709319348,-26.7891186527263
152.056201390727,-26.8126748623479
152.057369142209,-26.8139907074049
152.083760325697,-26.8141469629909
152.087699308308,-26.8126748623479
152.110151509185,-26.792634815492
152.136542692674,-26.7922597633215
152.162933876162,-26.7935635950115
152.184345591067,-26.8126748623479
152.187238800085,-26.8362261781803
152.187957640816,-26.859772597262
152.18932505965,-26.8610052591182
152.191419598022,-26.859772597262
152.215716243139,-26.8380951205321
152.242107426626,-26.8433619739298
152.260501281785,-26.859772597262
152.268498610115,-26.8619525734544
152.278649065303,-26.859772597262
152.294889793603,-26.8452830728705
152.311130521904,-26.859772597262
152.321280977092,-26.8778818933581
152.327371250204,-26.8833141166349
152.343483083835,-26.9068507333453
152.341388545463,-26.9303824444431
152.321280977092,-26.9483080727077
152.301173408719,-26.9303824444431
152.294889793603,-26.9274412489323
152.268498610115,-26.9272451665047
152.242107426626,-26.9285999108645
152.229540196394,-26.9303824444431
152.215716243139,-26.9427066200429
152.201892289882,-26.9303824444431
152.18932505965,-26.9277680522208
152.186575978036,-26.9303824444431
152.18932505965,-26.9517706496619
152.191724258149,-26.9539092469824
152.18932505965,-26.9560478037119
152.162933876162,-26.9725311492276
152.142040855901,-26.9539092469824
152.136542692674,-26.9518812677601
152.133284521873,-26.9539092469824
152.110151509185,-26.9745274667047
152.083760325697,-26.9676309471605
152.057369142209,-26.9734447226358
152.030977958721,-26.9723181013984
152.024840474189,-26.9774311380209
152.004586775232,-26.9954794890014
151.993112347629,-27.0009481146207
151.978195591744,-27.0142381438029
151.951804408255,-27.0182732667584
151.93421028593,-27.0244601738473
151.925413224768,-27.0322964336666
151.916616163605,-27.0244601738473
151.902874768796,-27.0009481146207
151.89902204128,-26.9991998096987
151.872630857791,-26.9995849458709
151.871131358729,-27.0009481146207
151.872630857791,-27.0062921963443
151.893024045032,-27.0244601738473
151.89447183723,-27.0479673127705
151.89635626517,-27.0714695284637
151.872630857791,-27.0925935781634
151.846239674303,-27.0929757133991
151.819848490814,-27.0901718530174
151.810073978411,-27.0949668180048
151.793457307327,-27.1097588791316
151.785916969187,-27.1184591784748
151.767066123838,-27.1352364165403
151.748215278489,-27.1184591784748
151.745001363873,-27.0949668180048
151.74067494035,-27.0865754945687
151.723709179536,-27.0714695284637
151.714283756861,-27.0675528345299
151.692291103955,-27.0479673127705
151.714283756861,-27.0283783721013
151.721933375264,-27.0244601738473
151.74067494035,-27.0077637104752
151.742803261599,-27.0009481146207
151.74067494035,-26.9991157995569
151.714283756861,-26.9987504746037
151.687892573373,-26.9981652969445
151.682717831513,-27.0009481146207
151.661501389885,-27.0198503538616
151.635110206397,-27.0171131837495
151.616966267749,-27.0009481146207
151.635110206397,-26.9847807212646
151.639266298285,-26.9774311380209
151.661501389885,-26.9576138076964
151.687892573373,-26.956693159012
151.690670592688,-26.9539092469824
151.714283756861,-26.9328591811756
151.737896921035,-26.9539092469824
151.74067494035,-26.9557422980929
151.767066123838,-26.9555542942233
151.79161177002,-26.9774311380209
151.793457307327,-26.9787636759862
151.794630248815,-26.9774311380209
151.794552377181,-26.9539092469824
151.793457307327,-26.9527755377955
151.768337988102,-26.9303824444431
151.767066123838,-26.9289300118007
151.74067494035,-26.926955801523
151.714283756861,-26.9203695501475
151.699122864219,-26.9068507333453
151.695326709567,-26.8833141166349
151.714283756861,-26.8664045070031
151.716238659342,-26.859772597262
151.714283756861,-26.8583876493898
151.687892573373,-26.8580848449083
151.68442004923,-26.859772597262
151.661501389885,-26.8802168283364
151.639508736978,-26.8833141166349
151.635110206397,-26.887237226629
151.630711675815,-26.8833141166349
151.616049907211,-26.859772597262
151.635110206397,-26.8427673414603
151.637487790495,-26.8362261781803
151.661501389885,-26.8147968031385
151.664339151551,-26.8126748623479
151.668634142179,-26.7891186527263
151.687892573373,-26.771925899392
151.714283756861,-26.7680912385256
151.737837178684,-26.7891186527263
151.74067494035,-26.7908382495896
151.742838152111,-26.7891186527263
151.767066123838,-26.7674889739649
151.771189746258,-26.7655575522811
151.793457307327,-26.7456740717308
151.802882730001,-26.7419915639821
151.819848490814,-26.7268394203725
151.827610603605,-26.7184206908026
151.846239674303,-26.7017794879286
151.854752959299,-26.6948449357201
151.872630857791,-26.6788714907408
151.882781312979,-26.671264301716
151.881427918954,-26.6476787917756
151.872630857791,-26.6414712686031
151.853184722589,-26.6240884088879
151.853372426597,-26.6004931560462
151.852523289419,-26.5768930362475
151.872630857791,-26.5589087277352
151.89902204128,-26.5600328297124
151.917872886628,-26.5768930362475
151.925413224768,-26.5937507611723
151.951804408255,-26.5823818703577
151.972058107212,-26.6004931560462
151.978195591744,-26.602762141895
151.980003207052,-26.6004931560462
151.980306886423,-26.5768930362475
151.978195591744,-26.5684632431128
151.96122983093,-26.5532880524927
151.978195591744,-26.53811085301
151.98126433401,-26.5296782077867
151.978195591744,-26.5115134829241
151.972105318631,-26.5060635051383
151.978195591744,-26.5006132688061
152.004586775232,-26.487365088937
152.030977958721,-26.4864476039746
152.039775019883,-26.4824439475603
152.057369142209,-26.466694880148
</coordinates></LinearRing>
</outerBoundaryIs>
</Polygon>
</MultiGeometry>
</Placemark>

</Document>
</kml>
