<?xml version="1.0" encoding="UTF-8"?>
<kml xmlns="http://earth.google.com/kml/2.2">
<Document>
<name>4614_Yarraman</name>
<description><![CDATA[]]></description>

<Placemark>
<name>4614_Yarraman 30 min</name>
<description><![CDATA[]]></description>
<visibility>1</visibility>
<Style><LineStyle><width>1</width><color>ffffffff</color></LineStyle><PolyStyle><fill>0</fill></PolyStyle></Style>
<MultiGeometry>
<Polygon>
<outerBoundaryIs>
<LinearRing><coordinates>
152.028455272064,-26.5916436813071
152.028278860409,-26.6093419463694
152.029449201141,-26.6270374731359
152.030611414506,-26.6447302603425
152.034276856657,-26.6545584023432
152.043073917819,-26.6624203067267
152.034276856657,-26.6702816694639
152.02956414532,-26.6801076110268
152.034276856657,-26.6977921719826
152.014483469041,-26.7121380066998
152.004065896611,-26.7154739883352
151.994690081424,-26.7238486272427
151.993637241658,-26.7331530588268
151.993680214709,-26.7508293822009
151.994690081424,-26.7530387294034
152.012009295589,-26.7685029572022
152.014483469041,-26.7705578456361
152.022245581831,-26.7685029572022
152.034276856657,-26.7577605235609
152.046308131482,-26.7685029572022
152.050189187877,-26.7861737825767
152.05207091219,-26.8038418570715
152.052570745211,-26.8215071794351
152.052420795305,-26.8391697484173
152.034276856657,-26.8553580168151
152.033506685932,-26.856829562769
152.034276856657,-26.8575809831087
152.054070244273,-26.8578328785831
152.055706061431,-26.856829562769
152.056651990484,-26.8391697484173
152.059145471867,-26.8215071794351
152.073863631889,-26.8083716893245
152.088581791911,-26.8215071794351
152.091075273294,-26.8391697484173
152.093657019505,-26.8414783774147
152.096955917441,-26.8391697484173
152.113450407121,-26.8244511321729
152.129944896801,-26.8391697484173
152.133243794737,-26.8421631312014
152.153037182353,-26.8442156908
152.159422146101,-26.8391697484173
152.17283056997,-26.8272050832305
152.186238993839,-26.8391697484173
152.18957882103,-26.856829562769
152.192623957587,-26.8588592499223
152.212417345203,-26.8615383812104
152.226932496121,-26.8744866212423
152.232210732819,-26.8789563253187
152.252004120435,-26.8825116455406
152.26280051368,-26.8921409225906
152.26418466666,-26.9097924655687
152.252004120435,-26.9206535819917
152.23982357421,-26.9097924655687
152.232210732819,-26.9053239813451
152.212417345203,-26.9065832993423
152.196222755335,-26.8921409225906
152.192623957587,-26.8901118328326
152.187274393366,-26.8921409225906
152.17283056997,-26.9050220503568
152.170191451621,-26.9097924655687
152.163833575599,-26.9274412489323
152.153037182353,-26.9370666944519
152.133243794737,-26.9370666944519
152.115249805995,-26.9450872714387
152.113450407121,-26.9466913183579
152.093657019505,-26.9570394593872
152.080248595636,-26.9450872714387
152.073863631889,-26.9421464594665
152.054070244273,-26.9419363985327
152.034276856657,-26.9423726784959
152.021081264913,-26.9450872714387
152.014483469041,-26.9509686652023
152.007885673169,-26.9450872714387
151.999765309018,-26.9274412489323
151.994690081424,-26.925807218288
151.992502966771,-26.9274412489323
151.974896693808,-26.9431375704151
151.97341957533,-26.9450872714387
151.970069038292,-26.9627305318462
151.955103306192,-26.9760687235201
151.940137574092,-26.9627305318462
151.935309918576,-26.9612542143095
151.932896090818,-26.9627305318462
151.915516530959,-26.9782198967737
151.910803819622,-26.9803710289145
151.895723143343,-26.9938095521091
151.875929755727,-26.9954527396355
151.872837038912,-26.9980087614044
151.868860688721,-27.015643728078
151.856136368111,-27.0269790312726
151.836342980495,-27.0244601738473
151.832930327457,-27.0332759276988
151.832040070143,-27.0509053590312
151.816549592878,-27.0647003734939
151.801059115614,-27.0509053590312
151.796756205262,-27.0473440809467
151.776962817646,-27.0446094514211
151.764238497036,-27.0332759276988
151.776962817646,-27.0219412599389
151.796756205262,-27.019206011683
151.799948687136,-27.015643728078
151.796756205262,-27.013338660862
151.776962817646,-27.0118378542767
151.761441384192,-26.9980087614044
151.75716943003,-26.9937759578026
151.737376042414,-26.9898055088665
151.726788881596,-26.9803710289145
151.737376042414,-26.9709357580149
151.743197627007,-26.9627305318462
151.75716943003,-26.9502767524548
151.75923124124,-26.9450872714387
151.776962817646,-26.929279505114
151.778456658221,-26.9274412489323
151.776962817646,-26.9248649562811
151.760058975668,-26.9097924655687
151.75716943003,-26.9059554083238
151.741678952765,-26.8921409225906
151.740974840162,-26.8744866212423
151.737376042414,-26.8702321604495
151.72235214579,-26.856829562769
151.720331736411,-26.8391697484173
151.717582654798,-26.8367503812195
151.712869943461,-26.8391697484173
151.697789267182,-26.8526250949858
151.677995879565,-26.8529053976982
151.66260102253,-26.8391697484173
151.663857745553,-26.8215071794351
151.677995879565,-26.808889372917
151.692134013577,-26.8215071794351
151.697789267182,-26.8257128027889
151.700500690143,-26.8215071794351
151.704614573256,-26.8038418570715
151.717582654798,-26.7922665328625
151.737376042414,-26.7932413425503
151.749252074984,-26.8038418570715
151.75716943003,-26.8059450159784
151.760703963533,-26.8038418570715
151.776962817646,-26.78932899767
151.796756205262,-26.791081857038
151.811051429652,-26.8038418570715
151.816549592878,-26.8054776507032
151.819377219681,-26.8038418570715
151.836342980495,-26.7886979616692
151.841692544715,-26.7861737825767
151.856136368111,-26.7732791271509
151.875929755727,-26.7748142819755
151.881279319947,-26.7685029572022
151.895723143343,-26.7556062951684
151.898967960985,-26.7508293822009
151.898768279899,-26.7331530588268
151.900121673924,-26.7154739883352
151.906140715772,-26.6977921719826
151.915516530959,-26.6894156167357
151.9237637758,-26.6801076110268
151.935309918576,-26.6697903501635
151.941907714448,-26.6624203067267
151.935309918576,-26.6513643489945
151.92788739822,-26.6447302603425
151.922585597965,-26.6270374731359
151.935309918576,-26.6156620917683
151.948034239186,-26.6270374731359
151.955103306192,-26.630254547343
151.97129789606,-26.6447302603425
151.974896693808,-26.6468617364742
151.99012237659,-26.6447302603425
151.97929522439,-26.6270374731359
151.994690081424,-26.6132745223382
152.000688077672,-26.6093419463694
152.000511666017,-26.5916436813071
152.003295902127,-26.5739426792142
152.014483469041,-26.5639365547575
152.025671035954,-26.5739426792142
152.028455272064,-26.5916436813071
</coordinates></LinearRing>
</outerBoundaryIs>
</Polygon>
</MultiGeometry>
</Placemark>

</Document>
</kml>
